main2_Seq, time [ms], size=5000000	step=25000
10	0.024663	0.005799	0.007749	0.002339	0.001852	0.042402	
25010	0.583658	0.380891	0.168359	0.358074	0.078872	1.569854	
50010	1.129244	0.956109	0.341885	0.683365	0.169685	3.280288	
75010	1.718261	1.468575	0.479556	1.036749	0.238343	4.941484	
100010	2.212773	2.135730	0.653811	1.355256	0.322666	6.680236	
125010	2.734110	2.582063	0.829840	1.698846	0.369034	8.213893	
150010	3.431039	3.313734	0.989872	2.039584	0.460754	10.234983	
175010	3.947503	4.047153	1.145357	2.376073	0.520151	12.036237	
200010	4.504714	5.004938	1.358636	2.688142	0.595736	14.152166	
225010	4.949009	5.988824	1.528017	3.040183	0.672525	16.178558	
250010	5.460086	7.052219	1.616196	3.403039	0.770814	18.302354	
275010	6.008262	8.403579	1.809877	3.748520	0.865215	20.835453	
300010	6.557051	9.652532	2.101197	4.073352	0.938169	23.322301	
325010	7.291607	11.384629	2.292164	4.410973	1.036710	26.416083	
350010	7.004060	13.122128	2.720648	4.761406	1.044631	28.652873	
375010	7.494088	15.860580	2.909455	5.227711	1.125721	32.617555	
400010	8.037358	16.635664	3.074308	5.442485	1.203402	34.393217	
425010	8.675111	18.811068	3.266874	5.793823	1.329154	37.876030	
450010	9.227582	20.177257	3.485192	6.150808	1.369731	40.410570	
475010	9.883640	24.682340	3.875407	6.508142	1.486464	46.435993	
500010	10.457013	25.663028	4.358698	6.862813	1.548183	48.889735	
525010	10.974199	27.504354	4.883047	7.206047	1.652178	52.219825	
550010	11.576225	32.080497	5.071607	7.576865	1.785940	58.091134	
575010	12.209154	34.003300	5.202510	7.894164	1.789507	61.098635	
600010	12.685349	36.140522	5.595168	8.306469	1.864694	64.592202	
625010	12.327846	40.698267	6.698362	8.604147	1.970466	70.299088	
650010	12.930749	41.537751	6.467813	9.005650	2.055770	71.997733	
675010	13.530819	45.221378	6.918707	9.375782	2.175631	77.222317	
700010	14.046907	47.469918	6.927776	9.734661	2.244690	80.423952	
725010	14.631053	49.704985	7.410765	10.159603	2.413566	84.319972	
750010	15.273882	53.050611	7.921035	10.422684	2.420848	89.089060	
775010	15.798934	56.545833	8.037089	10.813539	2.565047	93.760442	
800010	16.343083	58.626570	8.460369	11.121023	2.617116	97.168161	
825010	16.951822	61.499276	8.878051	11.583998	3.092712	102.005859	
850010	17.466899	62.573257	9.254666	11.875298	2.906942	104.077062	
875010	17.099407	67.930703	9.664360	12.263014	2.968391	109.925875	
900010	17.659410	68.373309	9.852513	12.629469	3.179094	111.693795	
925010	18.167805	62.242245	9.993169	13.027502	3.238058	106.668779	
950010	18.949866	64.981630	10.654358	13.367840	3.439894	111.393588	
975010	19.355017	68.415242	10.860504	13.712492	3.481918	115.825173	
1000010	19.921076	71.693863	11.323273	14.005683	3.576700	120.520595	
1025010	20.480892	74.606672	11.605473	14.420767	3.777971	124.891775	
1050010	21.033942	75.616625	11.495864	14.786103	3.856472	126.789006	
1075010	21.634364	80.536851	12.427765	15.130822	3.916067	133.645869	
1100010	22.194812	87.476286	12.577678	15.528975	4.066808	141.844559	
1125010	22.757247	88.601980	12.967048	15.877326	4.190106	144.393707	
1150010	22.428219	100.989989	13.185313	16.270674	4.368245	157.242440	
1175010	23.020815	93.438794	13.318953	16.580297	4.411202	150.770061	
1200010	23.604589	97.429902	14.113235	16.985146	4.670476	156.803348	
1225010	24.179749	101.640554	14.414594	17.288874	4.667845	162.191616	
1250010	24.719628	108.763041	14.647616	17.689186	4.750402	170.569873	
1275010	25.275481	111.967499	14.703580	17.988534	4.877629	174.812723	
1300010	25.843206	115.073905	15.127983	18.355905	4.987917	179.388916	
1325010	26.290859	120.933032	16.010566	18.717460	5.117855	187.069772	
1350010	26.894993	124.914370	16.025633	19.023785	5.145869	192.004650	
1375010	27.464802	127.435052	16.067593	19.443018	5.350446	195.760911	
1400010	27.191255	130.635844	16.239625	19.772166	5.416110	199.255000	
1425010	27.722420	134.231944	16.966011	20.098969	5.534636	204.553980	
1450010	28.325511	137.463376	18.156706	20.459453	5.632028	210.037074	
1475010	28.866928	141.653778	17.605789	20.828062	5.709262	214.663819	
1500010	29.440750	152.639878	17.726377	21.098850	5.796220	226.702075	
1525010	30.023000	144.850496	18.032447	21.513170	5.939870	220.358983	
1550010	30.591680	146.603544	18.857088	21.859164	6.021328	223.932804	
1575010	31.143596	151.669072	19.327911	22.238846	6.109497	230.488922	
1600010	31.670275	152.076066	19.434132	22.574682	6.182404	231.937559	
1625010	32.362079	164.046287	24.725508	22.937406	6.325563	250.396843	
1650010	32.844891	164.339512	19.923863	23.321711	6.433368	246.863345	
1675010	32.475672	165.650887	20.503366	23.614287	6.616267	248.860479	
1700010	33.024896	181.264193	20.540561	24.017341	6.623431	265.470422	
1725010	33.621694	177.613121	20.919745	24.363685	6.684914	263.203159	
1750010	34.179807	183.096042	20.707688	24.766165	6.829464	269.579166	
1775010	34.725836	189.239562	21.477376	25.046897	6.860873	277.350544	
1800010	35.302587	193.789673	22.274455	25.463131	7.030241	283.860087	
1825010	35.869770	200.205016	22.387734	25.789993	7.104264	291.356777	
1850010	36.451308	203.218350	22.304465	26.157316	7.232676	295.364115	
1875010	37.071716	208.770972	22.455185	26.483356	7.286106	302.067335	
1900010	37.525324	218.162801	23.468574	26.833735	7.354159	313.344593	
1925010	37.111795	221.000726	24.116238	27.214810	7.471406	316.914975	
1950010	37.765585	228.472672	23.880769	27.532927	7.544061	325.196014	
1975010	38.335893	228.179146	23.585345	27.880481	7.763805	325.744670	
2000010	38.863351	233.450289	24.579675	28.270123	7.803995	332.967433	
2025010	39.415836	236.553294	25.182676	28.652338	7.883801	337.687945	
2050010	40.161431	243.305966	25.175383	28.956946	7.955743	345.555469	
2075010	40.579757	250.352451	25.567692	29.314644	8.092067	353.906611	
2100010	41.149521	243.561039	24.998325	29.691796	8.155967	347.556648	
2125010	41.810096	244.799236	26.551615	30.062564	8.303274	351.526785	
2150010	42.281161	250.060405	26.728600	30.351348	8.313268	357.734782	
2175010	42.898785	254.317492	26.924430	30.740107	8.501588	363.382402	
2200010	42.545230	258.467251	26.938805	31.157169	8.525881	367.634336	
2225010	43.012945	265.514469	27.116486	31.438357	8.628464	375.710721	
2250010	43.696793	268.216727	28.343191	31.753022	8.724132	380.733865	
2275010	44.231424	276.937492	28.257390	32.115515	8.814179	390.356000	
2300010	44.868463	278.160933	28.941698	32.639313	9.001562	393.611969	
2325010	45.389277	285.826572	28.099734	32.817838	9.018152	401.151573	
2350010	45.900936	291.676860	29.338046	33.196514	9.152761	409.265117	
2375010	46.584753	296.758744	29.922613	33.539201	9.133230	415.938541	
2400010	47.050721	301.307928	29.887760	33.925319	9.378764	421.550492	
2425010	47.593650	306.696127	30.220063	34.292968	9.478759	428.281567	
2450010	47.313197	311.022869	29.961228	34.646786	9.519838	432.463918	
2475010	47.967407	314.998707	31.161270	34.986952	9.584012	438.698348	
2500010	48.429962	319.784852	31.869458	35.307576	9.743930	445.135778	
2525010	48.959412	325.470620	31.895803	35.661759	9.786767	451.774361	
2550010	49.544999	333.499623	31.470069	36.030136	9.928900	460.473727	
2575010	50.078010	336.322147	32.162068	36.347360	9.972503	464.882088	
2600010	50.624695	342.015526	32.818832	36.753330	10.133153	472.345536	
2625010	51.194625	343.939515	33.253703	37.070008	10.214530	475.672381	
2650010	51.776990	351.668104	33.326313	37.502351	10.318325	484.592083	
2675010	52.349298	346.480128	32.030768	37.759831	10.366022	478.986047	
2700010	52.145167	344.919126	33.878634	38.146109	10.480402	479.569438	
2725010	52.507036	346.625377	34.912256	38.552022	10.617998	483.214689	
2750010	53.205963	354.996807	34.901630	38.777291	10.684427	492.566118	
2775010	53.690440	359.523836	35.085037	39.139974	10.752612	498.191899	
2800010	54.270297	366.554894	34.475482	39.438537	10.863556	505.602766	
2825010	54.872544	371.137878	35.544528	39.803640	10.959902	512.318492	
2850010	55.313670	377.136650	36.083001	40.146187	11.096541	519.776049	
2875010	55.987776	380.639173	36.371814	40.541932	11.133120	524.673815	
2900010	56.466184	386.200278	36.186278	40.971792	11.269211	531.093743	
2925010	57.106504	391.098503	36.489637	41.276622	11.249760	537.221026	
2950010	57.744560	395.842945	37.374213	41.712795	11.443714	544.118227	
2975010	57.374831	405.727042	37.930381	42.003542	11.573178	554.608974	
3000010	57.857706	408.710072	38.047717	42.340808	11.643349	558.599652	
3025010	58.491377	412.389924	36.784314	42.679663	11.739167	562.084445	
3050010	59.128466	425.413834	38.731227	42.991526	11.781767	578.046820	
3075010	59.533652	423.306738	39.341798	43.429361	11.925678	577.537227	
3100010	60.147529	428.626890	39.546633	43.761467	12.046448	584.128967	
3125010	60.673595	432.125221	39.355470	44.111641	12.056412	588.322339	
3150010	61.306099	442.198562	38.894327	44.459839	12.255852	599.114679	
3175010	61.806728	444.977027	40.290095	44.802281	12.251895	604.128026	
3200010	62.310901	451.580919	40.976784	45.220123	12.467428	612.556155	
3225010	62.153375	455.633976	41.202657	45.537316	12.494134	617.021458	
3250010	62.631560	438.754969	40.753853	45.857316	12.619442	600.617140	
3275010	63.189070	443.269282	41.419441	46.268405	12.655700	606.801898	
3300010	63.658073	447.812649	42.510260	46.585227	12.746989	613.313198	
3325010	64.344978	454.009770	42.781741	46.990274	12.879626	621.006389	
3350010	64.879684	460.524465	42.307151	47.319200	12.980733	628.011233	
3375010	65.435506	471.446803	41.270640	47.592823	13.001990	638.747762	
3400010	65.886039	471.440582	43.687941	48.001066	13.121071	642.136699	
3425010	66.576575	475.559223	44.105822	48.377082	13.288229	647.906931	
3450010	67.180760	481.211786	44.372474	48.869399	13.352709	654.987128	
3475010	67.685454	526.858654	44.633294	50.300676	13.492009	702.970087	
3500010	67.351027	493.188575	43.715377	49.389077	13.600537	667.244593	
3525010	67.802834	497.437255	45.473926	49.682297	13.575507	673.971819	
3550010	68.489191	504.741671	45.954438	50.157783	13.758069	683.101152	
3575010	69.111470	510.627020	45.640894	50.406771	13.902585	689.688740	
3600010	69.700223	515.074504	44.863021	50.817892	13.884341	694.339981	
3625010	70.231736	519.811276	45.845750	51.070928	13.998047	700.957737	
3650010	70.741665	525.033213	47.213784	51.405425	14.060777	708.454864	
3675010	71.351647	530.638357	47.172858	51.774973	14.207177	715.145012	
3700010	71.908032	539.664148	47.731458	52.164644	14.441400	725.909682	
3725010	72.427592	541.224349	45.692523	52.617906	14.354566	726.316936	
3750010	72.053697	545.869506	48.270733	52.892631	14.506941	733.593508	
3775010	72.664272	548.363425	48.780010	53.266142	14.483179	737.557028	
3800010	73.142027	554.807356	48.725188	53.591014	14.637842	744.903427	
3825010	73.819918	559.133074	48.343133	54.130352	14.774638	750.201115	
3850010	74.247576	542.015717	48.089723	54.619180	15.083644	734.055840	
3875010	74.973688	548.706237	49.931089	54.698622	15.031522	743.341158	
3900010	75.576281	554.358030	50.516869	55.071624	15.191548	750.714352	
3925010	76.138921	568.454266	50.346442	55.350934	15.116588	765.407151	
3950010	76.664232	565.777301	49.565487	55.743820	15.321514	763.072354	
3975010	77.211195	595.526672	50.682860	56.057174	15.519959	794.997860	
4000010	77.713694	576.267018	51.936412	56.488513	15.514817	777.920454	
4025010	77.413045	609.505530	52.199226	56.917664	15.493750	811.529215	
4050010	78.045356	587.943705	52.097691	57.173978	15.718838	790.979568	
4075010	78.585631	616.899953	50.688949	57.539185	15.732428	819.446146	
4100010	79.013229	596.986145	53.078010	57.850112	15.887240	802.814736	
4125010	79.607448	627.278573	53.583412	58.242993	15.984127	834.696553	
4150010	80.242771	608.454691	53.754536	58.624737	16.080960	817.157695	
4175010	80.744312	643.325314	53.289539	58.897957	16.069000	852.326122	
4200010	81.450360	618.970463	53.104553	59.223481	16.228165	828.977022	
4225010	81.802038	624.160288	54.888100	59.639688	16.316636	836.806750	
4250010	82.417870	653.097774	55.293478	59.794099	16.256750	866.859971	
4275010	82.105900	634.492801	54.926971	60.227606	16.564007	848.317285	
4300010	82.713262	663.646341	54.442102	60.600110	16.638679	878.040494	
4325010	83.329065	647.517298	55.282150	61.051432	16.749693	863.929638	
4350010	83.813711	673.851573	57.053817	61.403578	16.733686	892.856365	
4375010	84.476203	657.901056	56.567077	61.811531	16.962766	877.718633	
4400010	85.040522	684.891418	56.753093	62.083972	16.946140	905.715145	
4425010	85.579649	644.680393	55.341459	62.514324	17.163264	865.279089	
4450010	85.961109	675.181948	57.548883	62.690515	17.170039	898.552494	
4475010	86.681658	656.173353	58.085226	63.144036	17.245810	881.330083	
4500010	86.953834	659.685786	58.152965	63.507290	17.359463	885.659338	
4525010	87.851352	693.782026	57.757274	63.830227	17.434123	920.655002	
4550010	87.493869	669.871304	58.109381	64.137477	17.482056	897.094087	
4575010	88.152938	705.215302	59.683928	64.553388	17.632159	935.237715	
4600010	88.621215	680.167677	59.909037	64.849405	17.645308	911.192642	
4625010	89.089799	713.475543	59.760485	65.272014	17.848642	945.446483	
4650010	89.774832	693.440112	59.010960	65.714328	17.951904	925.892136	
4675010	90.230882	724.918418	60.072343	66.008142	17.922715	959.152500	
4700010	90.766115	702.825675	61.342590	66.320657	18.171614	939.426651	
4725010	91.356979	736.089284	61.433561	66.736045	18.252930	973.868799	
4750010	91.990865	714.698759	61.525152	66.992735	18.325516	953.533027	
4775010	92.504417	748.389722	60.224368	67.326720	18.435608	986.880835	
4800010	92.157709	725.783450	62.683306	67.539460	18.310336	966.474261	
4825010	92.706099	758.584918	63.232296	67.964375	18.811350	1001.299038	
4850010	93.228025	735.570588	62.733051	68.396311	18.745853	978.673828	
4875010	93.870335	772.428737	62.665509	68.836255	18.685657	1016.486493	
4900010	94.434864	765.789363	62.421889	69.159070	18.953867	1010.759053	
4925010	94.991979	753.233010	64.781633	69.479780	18.900142	1001.386544	
4950010	95.569175	783.821879	64.955581	69.858792	19.081881	1033.287308	
4975010	96.168361	764.018959	64.373980	70.110885	19.083197	1013.755382	
